time	position	velocity
0.0	0.0	0.0
0.01	1.6666666666666667e-05	0.006649999583333333
0.02	9.950055418055537e-05	0.013233389443069375
0.03	0.00024783779297710487	0.019750395653379167
0.04	0.00046101677399434276	0.026201246442461953
0.05	0.0007383781700677919	0.03258617215597291
0.060000000000000005	0.0010792649569611264	0.038905405220674344
0.07	0.0014830224340348056	0.04515918010831045
0.08	0.001948998244554919	0.05134773329970597
0.09	0.002476542395644473	0.057471303249088695
0.09999999999999999	0.0030650072778793543	0.06353013034863617
0.10999999999999999	0.003713747684531207	0.0695244568932465
0.11999999999999998	0.004422120830459458	0.0754545270455336
0.12999999999999998	0.005189486370654729	0.08132058680104672
0.13999999999999999	0.0060152064184358775	0.08712288395371456
0.15	0.006898645563302898	0.09286166806151394
0.16	0.007839170888447936	0.09853719041236292
0.17	0.008836151987926637	0.10414970399023867
0.18000000000000002	0.009888960983492089	0.10969946344151991
0.19000000000000003	0.010996972541093596	0.11518672504155403
0.20000000000000004	0.012159563887042509	0.12061174666144867
0.21000000000000005	0.013376114823847367	0.12597478773508805
0.22000000000000006	0.01464600774572059	0.13127610922637376
0.23000000000000007	0.01596862765375896	0.13651597359668996
0.24000000000000007	0.017343362170800118	0.1416946447725931
0.25000000000000006	0.018769601555957343	0.1468123881137258
0.26000000000000006	0.02024673871883481	0.15186947038095494
0.2700000000000001	0.02177416923342561	0.15686615970473405
0.2800000000000001	0.023351291351694725	0.16180272555368938
0.2900000000000001	0.02497750601684921	0.16667943870342988
0.3000000000000001	0.026652216876297822	0.17149657120558084
0.3100000000000001	0.02837483029430232	0.17625439635704104
0.3200000000000001	0.030144755364322637	0.18095318866946308
0.3300000000000001	0.031961403921058215	0.18559322383895696
0.34000000000000014	0.03382419055218766	0.1901747787160164
0.35000000000000014	0.03573253260980898	0.1946981312756679
0.36000000000000015	0.0376858502215826	0.1991635605878422
0.37000000000000016	0.03968356630157942	0.20357134678796798
0.38000000000000017	0.04172510656083607	0.20792177104778736
0.3900000000000002	0.04380989951761961	0.21221511554639316
0.4000000000000002	0.0459373765074039	0.21645166344148747
0.4100000000000002	0.04810697169255977	0.2206316988408613
0.4200000000000002	0.05031812207176134	0.224755506774095
0.4300000000000002	0.05257026748911052	0.22882337316447907
0.4400000000000002	0.054862850642982006	0.2328355848011551
0.45000000000000023	0.05719531709459094	0.23679242931147654
0.46000000000000024	0.0595671152762854	0.24069419513358883
0.47000000000000025	0.06197769649956592	0.24454117148922855
0.48000000000000026	0.06442651496283425	0.2483336483567413
0.49000000000000027	0.06691302775887346	0.2520719164443178
0.5000000000000002	0.06943669488206175	0.255756267163448
0.5100000000000002	0.0719969792353218	0.2593869926025925
0.5200000000000002	0.07459334663680826	0.2629643855010713
0.5300000000000002	0.07722526582633514	0.2664887392231688
0.5400000000000003	0.07989220847154554	0.2699603477324554
0.5500000000000003	0.08259364917382576	0.2733795055663247
0.5600000000000003	0.08532906547396593	0.27674650781074567
0.5700000000000003	0.08809793785756934	0.2800616500752304
0.5800000000000003	0.0908997497602126	0.2833252284680154
0.5900000000000003	0.09373398757235886	0.2865375395714573
0.6000000000000003	0.09660014064402596	0.28969888041764164
0.6100000000000003	0.09949770128921195	0.2928095484642047
0.6200000000000003	0.10242616479007995	0.29586984157036755
0.6300000000000003	0.10538502940090437	0.2988800579731819
0.6400000000000003	0.10837379635178088	0.30184049626398746
0.6500000000000004	0.1113919698521019	0.3047514553650798
0.6600000000000004	0.1144390570938	0.3076132345065886
0.6700000000000004	0.11751456825436118	0.3104261332035655
0.6800000000000004	0.12061801649960997	0.3131904512332807
0.6900000000000004	0.12374891798626882	0.31590648861272885
0.7000000000000004	0.1269067918642934	0.318574545576342
0.7100000000000004	0.13009116027898632	0.3211949225539104
0.7200000000000004	0.13330154837289096	0.3237679201487099
0.7300000000000004	0.1365374842874677	0.3262938391158355
0.7400000000000004	0.13979849916455458	0.32877298034074015
0.7500000000000004	0.1430841271476143	0.33120564481797915
0.7600000000000005	0.14639390538276975	0.3335921336301579
0.7700000000000005	0.14972737401963016	0.3359327479270839
0.7800000000000005	0.15308407621190961	0.33822778890512156
0.7900000000000005	0.1564635581178403	0.34047755778674943
0.8000000000000005	0.15986536890038214	0.34268235580031875
0.8100000000000005	0.1632890607272313	0.34484248416001356
0.8200000000000005	0.166734188770629	0.3469582440460108
0.8300000000000005	0.17020031120697324	0.34902993658484
0.8400000000000005	0.17368698921623477	0.35105786282994234
0.8500000000000005	0.17719378698117985	0.35304232374242756
0.8600000000000005	0.18072027168640162	0.35498362017202884
0.8700000000000006	0.1842660135171617	0.35688205283825425
0.8800000000000006	0.18783058565804459	0.3587379223117347
0.8900000000000006	0.19141356429142617	0.360551528995767
0.9000000000000006	0.195014528595759	0.362323173108052
0.9100000000000006	0.1986330607436755	0.3640531546626266
0.9200000000000006	0.20226874589991173	0.365741773451989
0.9300000000000006	0.2059211722190531	0.3673893290294165
0.9400000000000006	0.20958993084310437	0.3689961206914754
0.9500000000000006	0.21327461589888555	0.37056244746072153
0.9600000000000006	0.21697482449525576	0.3720886080685914
0.9700000000000006	0.22069015672016692	0.3735749009384826
0.9800000000000006	0.22442021563754902	0.3750216241690235
0.9900000000000007	0.22816460728402918	0.37642907551753035
1.0000000000000007	0.231922940665486	0.377797552383652
1.0100000000000007	0.23569482775344122	0.37912735179320095
1.0200000000000007	0.23947988348129073	0.3804187703821703
1.0300000000000007	0.24327772574037645	0.38167210438093524
1.0400000000000007	0.24708797537590113	0.3828876495986388
1.0500000000000007	0.25091025618268786	0.3840657014077611
1.0600000000000007	0.2547441949007861	0.3852065547288707
1.0700000000000007	0.2585894212109261	0.3863105040155583
1.0800000000000007	0.2624455677298234	0.38737784323955027
1.0900000000000007	0.2663122700053355	0.38840886587600354
1.1000000000000008	0.270189166511472	0.38940386488897877
1.1100000000000008	0.27407589864326043	0.3903631327170924
1.1200000000000008	0.27797211071146943	0.3912869612593462
1.1300000000000008	0.281877449937191	0.3921756418611338
1.1400000000000008	0.2857915664462835	0.3930294653004229
1.1500000000000008	0.2897141132636776	0.3938487217741126
1.1600000000000008	0.2936447463075459	0.39463370088456556
1.1700000000000008	0.29758312438333956	0.3953846916263128
1.1800000000000008	0.30152890917769193	0.39610198237293176
1.1900000000000008	0.3054817652521921	0.39678586086409573
1.2000000000000008	0.30944136003702977	0.39743661419279447
1.2100000000000009	0.31340736382451273	0.3980545287927246
1.2200000000000009	0.3173794497624593	0.3986398904258495
1.2300000000000009	0.3213572938474671	0.3991929841701272
1.2400000000000009	0.32534057491805946	0.39971409440740613
1.2500000000000009	0.32932897464771205	0.4002035048114871
1.260000000000001	0.33332217753776033	0.40066149833635134
1.270000000000001	0.33731987091019033	0.4010883572045534
1.280000000000001	0.341321744900314	0.40148436289577777
1.290000000000001	0.3453274924493304	0.40184979613555893
1.300000000000001	0.34933680929677585	0.4021849368841637
1.310000000000001	0.3533493939728621	0.40249006432563456
1.320000000000001	0.35736494779070677	0.4027654568569941
1.330000000000001	0.3613831748384563	0.40301139207760855
1.340000000000001	0.3654037819713026	0.40322814677871033
1.350000000000001	0.3694264788033963	0.4034159969330784
1.360000000000001	0.373450977699657	0.40357521768487553
1.370000000000001	0.3774769937674829	0.4037060833396419
1.380000000000001	0.38150424484836043	0.4038088673544435
1.390000000000001	0.3855324515093767	0.4038838423281751
1.400000000000001	0.38956133703463514	0.4039312799920166
1.410000000000001	0.39359062741657647	0.403951451200042
1.420000000000001	0.3976200513472064	0.40394462591997954
1.430000000000001	0.4016493402092313	0.40391107322412323
1.440000000000001	0.40567822806710413	0.4038510612803938
1.450000000000001	0.40970645165798086	0.40376485734354844
1.460000000000001	0.41373375038259025	0.40365272774653926
1.470000000000001	0.41775986629601725	0.40351493789201803
1.480000000000001	0.42178454409840244	0.4033517522439877
1.490000000000001	0.42580753112555836	0.40316343431959917
1.500000000000001	0.42982857733950436	0.4029502466810923
1.5100000000000011	0.4338474353189215	0.40271245092788077
1.5200000000000011	0.4378638602495288	0.4024503076887792
1.5300000000000011	0.4418776099143823	0.4021640766143723
1.5400000000000011	0.44588844468409844	0.40185401636952467
1.5500000000000012	0.449896127507003	0.40152038462603057
1.5600000000000012	0.45390042389920704	0.40116343805540267
1.5700000000000012	0.4579011019346114	0.40078343232179897
1.5800000000000012	0.4618979322348408	0.4003806220750869
1.5900000000000012	0.46589068795910926	0.39995526094404354
1.6000000000000012	0.4698791447940179	0.3995076015296916
1.6100000000000012	0.47386308094328655	0.39903789539876955
1.6200000000000012	0.47784227711742105	0.3985463930773354
1.6300000000000012	0.48181651652331625	0.39803334404450336
1.6400000000000012	0.4857855848537976	0.39749899672631195
1.6500000000000012	0.4897492702771014	0.39694359848972327
1.6600000000000013	0.49370736342629606	0.3963673956367521
1.6700000000000013	0.49765965738864437	0.395770633398724
1.6800000000000013	0.5016059476949096	0.3951535559306616
1.6900000000000013	0.5055460323086054	0.3945164063057983
1.7000000000000013	0.5094797116151915	0.39385942651021816
1.7100000000000013	0.513406788411216	0.39318285743762116
1.7200000000000013	0.5173270678934063	0.3924869388842132
1.7300000000000013	0.5212403576477089	0.3917719095437198
1.7400000000000013	0.5251464676382798	0.3910380070025221
1.7500000000000013	0.5290452101964267	0.39028546773491535
1.7600000000000013	0.5329364000095048	0.38951452709848783
1.7700000000000014	0.5368198541097656	0.38872541932962
1.7800000000000014	0.5406953918631624	0.38791837753910313
1.7900000000000014	0.5445628349581114	0.3870936337078754
1.8000000000000014	0.5484220073942112	0.3862514186828763
1.8100000000000014	0.5522727354709207	0.3853919621730169
1.8200000000000014	0.5561148477761977	0.3845154927452658
1.8300000000000014	0.5599481751750983	0.38362223782085
1.8400000000000014	0.5637725507983388	0.38271242367156916
1.8500000000000014	0.567587810030821	0.3817862754162235
1.8600000000000014	0.5713937905001228	0.38084401701715287
1.8700000000000014	0.5751903320649535	0.37988587127688744
1.8800000000000014	0.5789772768035766	0.3789120598349087
1.8900000000000015	0.5827544690022005	0.37792280316451965
1.9000000000000015	0.5865217551433386	0.37691832056982355
1.9100000000000015	0.5902789838941386	0.3758988301828103
1.9200000000000015	0.5940260060946838	0.3748645489605496
1.9300000000000015	0.5977626747462665	0.3738156926824899
1.9400000000000015	0.6014888449996347	0.3727524759478623
1.9500000000000015	0.6052043741432128	0.37167511217318894
1.9600000000000015	0.6089091215912983	0.3705838135898939
1.9700000000000015	0.6126029488722344	0.3694787912420173
1.9800000000000015	0.6162857196165608	0.3683602549840304
1.9900000000000015	0.6199572995451417	0.3672284134787514
2.0000000000000013	0.6236175564572747	0.3660834741953613
2.010000000000001	0.627266360218779	0.3649256434075184
2.020000000000001	0.6309035827500659	0.36375512619157085
2.0300000000000007	0.6345290980141908	0.36257212642486675
2.0400000000000005	0.6381427820048897	0.3613768467841602
2.0500000000000003	0.6417445127345991	0.36016948874411303
2.06	0.6453341702224614	0.3589502525758912
2.07	0.6489116364823171	0.357719337345855
2.0799999999999996	0.6524767955106834	0.356476940914342
2.0899999999999994	0.6560295332747214	0.3552232599345426
2.099999999999999	0.6595697377001918	0.3539584898514662
2.109999999999999	0.6630972986594016	0.3526828249009983
2.1199999999999988	0.66661210795914	0.3513964581090468
2.1299999999999986	0.6701140593286076	0.35009958129077756
2.1399999999999983	0.6736030484073369	0.3487923850499375
2.149999999999998	0.6770789727331071	0.3474750587782646
2.159999999999998	0.6805417317298532	0.3461477906549849
2.1699999999999977	0.6839912266955698	0.3448107676463941
2.1799999999999975	0.6874273607902109	0.34346417550552444
2.1899999999999973	0.6908500390235878	0.34210819877189486
2.199999999999997	0.6942591682432628	0.3407430207713446
2.209999999999997	0.6976546571224432	0.33936882361594867
2.2199999999999966	0.7010364161478736	0.33798578820401465
2.2299999999999964	0.7044043576077285	0.3365940942201603
2.239999999999996	0.7077583955795065	0.3351939201354706
2.249999999999996	0.7110984459179256	0.33378544320773407
2.259999999999996	0.7144244262428212	0.33236883948175683
2.2699999999999956	0.7177362559270477	0.33094428378975427
2.2799999999999954	0.7210338560843838	0.32951194975181913
2.289999999999995	0.724317149557443	0.32807200977646556
2.299999999999995	0.7275860609055895	0.32662463506124767
2.3099999999999947	0.7308405163928607	0.3251699955934528
2.3199999999999945	0.7340804439758966	0.32370826015086773
2.3299999999999943	0.7373057732918765	0.3222395963026178
2.339999999999994	0.7405164356464659	0.3207641704100776
2.349999999999994	0.7437123640017704	0.319282147627853
2.3599999999999937	0.7468934929643017	0.31779369190483325
2.3699999999999934	0.7500597587729528	0.31629896598531254
2.3799999999999932	0.753211099286985	0.3147981314101806
2.389999999999993	0.7563474539740275	0.31329134851818097
2.399999999999993	0.7594687638980885	0.31177877644723667
2.4099999999999926	0.7625749717075814	0.31026057313584227
2.4199999999999924	0.7656660216233632	0.30873689532452164
2.429999999999992	0.7687418594267889	0.30720789855735076
2.439999999999992	0.7718024324477807	0.3056737371835447
2.4499999999999917	0.7748476895529135	0.30413456435910796
2.4599999999999915	0.7778775811335168	0.30259053204854786
2.4699999999999913	0.7808920590937937	0.3010417910266494
2.479999999999991	0.783891076838958	0.299488490880312
2.489999999999991	0.7868745892633899	0.29793078001044604
2.4999999999999907	0.7898425527388107	0.29636880563393
2.5099999999999905	0.7927949251024763	0.29480271378562595
2.5199999999999902	0.7957316656453927	0.29323264932045395
2.52999999999999	0.7986527351005507	0.2916587559155237
2.53999999999999	0.801558095631183	0.2900811760723233
2.5499999999999896	0.8044477108190425	0.2885000511189641
2.5599999999999894	0.8073215456527043	0.2869155212124812
2.569999999999989	0.8101795665158891	0.2853277253411886
2.579999999999989	0.8130217411758118	0.28373680132708856
2.5899999999999888	0.8158480387715538	0.28214288582833413
2.5999999999999885	0.8186584298024591	0.28054611434174476
2.6099999999999883	0.821452886116557	0.2789466212053735
2.619999999999988	0.8242313808990096	0.2773445396011258
2.629999999999988	0.8269938886605861	0.27574000155742895
2.6399999999999877	0.8297403852261632	0.27413313795195116
2.6499999999999875	0.8324708477232535	0.2725240785143703
2.6599999999999873	0.8351852545705611	0.27091295182919123
2.669999999999987	0.8378835854665658	0.2692998853386105
2.679999999999987	0.8405658213781355	0.26768500534542916
2.6899999999999866	0.8432319445291683	0.2660684370160115
2.6999999999999864	0.845881938389264	0.26445030438329004
2.709999999999986	0.8485157876624255	0.2628307303498158
2.719999999999986	0.8511334782757913	0.261209836690853
2.7299999999999858	0.8537349973683982	0.2595877440575181
2.7399999999999856	0.8563203332799759	0.25796457197996175
2.7499999999999853	0.8588894755397738	0.2563404388705939
2.759999999999985	0.8614424148554191	0.25471546202735035
2.769999999999985	0.8639791431018083	0.25308975763700153
2.7799999999999847	0.8664996533100322	0.25146344077850136
2.7899999999999845	0.8690039396563329	0.24983662542637652
2.7999999999999843	0.8714919974510964	0.24820942445415542
2.809999999999984	0.8739638231278783	0.2465819496378359
2.819999999999984	0.8764194142324652	0.2449543116593912
2.8299999999999836	0.8788587694119698	0.24332662011031378
2.8399999999999834	0.8812818884039634	0.2416989834951961
2.849999999999983	0.8836887720256418	0.24007150923534792
2.859999999999983	0.8860794221630295	0.23844430367244931
2.869999999999983	0.8884538417602195	0.23681747207223924
2.8799999999999826	0.8908120348086496	0.23519111862823855
2.8899999999999824	0.8931540063364167	0.23356534646550714
2.899999999999982	0.8954797623976285	0.23194025764443457
2.909999999999982	0.8977893100617924	0.23031595316456374
2.9199999999999817	0.9000826574032438	0.2286925329684466
2.9299999999999815	0.9023598134906117	0.22707009594553196
2.9399999999999813	0.9046207883763241	0.2254487399360841
2.949999999999981	0.9068655930861521	0.22382856173513238
2.959999999999981	0.9090942396087938	0.22220965709645052
2.9699999999999807	0.9113067408854973	0.22059212073656562
2.9799999999999804	0.9135031107997248	0.21897604633879594
2.9899999999999802	0.9156833641668558	0.21736152655731714
2.99999999999998	0.9178475167239323	0.21574865302125623
3.00999999999998	0.9199955851194437	0.2141375163388129
3.0199999999999796	0.9221275869031536	0.21252820610140738
3.0299999999999794	0.9242435405159676	0.21092081088785475
3.039999999999979	0.9263434652798435	0.20931541826856465
3.049999999999979	0.9284273813877424	0.2077121148097661
3.0599999999999787	0.9304953098936232	0.2061109860777571
3.0699999999999785	0.9325472727024782	0.2045121166431781
3.0799999999999783	0.9345832925604128	0.2029155900853089
3.089999999999978	0.9366033930447671	0.20132148899638896
3.099999999999978	0.9386075985542811	0.19972989498595967
3.1099999999999777	0.940595934299303	0.19814088868522897
3.1199999999999775	0.9425684262920414	0.19655454975145736
3.1299999999999772	0.9445251013368613	0.1949709568723648
3.139999999999977	0.9464659870206236	0.19339018777055805
3.149999999999977	0.9483911117030696	0.1918123192079782
3.1599999999999766	0.950300504507249	0.19023742699036736
3.1699999999999764	0.9521941953099936	0.1886655859717546
3.179999999999976	0.9540722147324348	0.18709687005896017
3.189999999999976	0.9559345941305663	0.18553135221611794
3.1999999999999758	0.9577813655858525	0.18396910446921522
3.2099999999999755	0.9596125618958818	0.18241019791064966
3.2199999999999753	0.9614282165650655	0.18085470270380286
3.229999999999975	0.9632283637953817	0.1793026880876299
3.239999999999975	0.9650130384771665	0.17775422238126468
3.2499999999999747	0.9667822761799497	0.17620937298864045
3.2599999999999745	0.9685361131433377	0.17466820640312491
3.2699999999999743	0.9702745862679414	0.17313078821216984
3.279999999999974	0.9719977331063525	0.17159718310197428
3.289999999999974	0.9737055918541642	0.17006745486216138
3.2999999999999736	0.9753982013410398	0.16854166639046794
3.3099999999999734	0.9770756010218283	0.16701987969744664
3.319999999999973	0.9787378309677258	0.16550215591118017
3.329999999999973	0.9803849318574852	0.16398855528200718
3.3399999999999728	0.9820169449686721	0.1624791371872592
3.3499999999999726	0.9836339121689688	0.16097396013600856
3.3599999999999723	0.985235875907525	0.15947308177382652
3.369999999999972	0.9868228792063566	0.15797655888755133
3.379999999999972	0.9883949656517912	0.15648444741006598
3.3899999999999717	0.9899521793859624	0.15499680242508487
3.3999999999999715	0.9914945650983509	0.1535136781719492
3.4099999999999713	0.9930221680173742	0.15203512805043073
3.419999999999971	0.9945350339020237	0.1505612046255435
3.429999999999971	0.99603320903355	0.14909195963236282
3.4399999999999706	0.9975167402071964	0.14762744398085154
3.4499999999999704	0.9989856747239805	0.14616770776069304
3.45999999999997	1.0004400603825239	0.14471280024613042
3.46999999999997	1.0018799454709302	0.14326276990081174
3.47999999999997	1.0033053787587116	0.14181766438264073
3.4899999999999696	1.0047164094887635	0.14037753054863283
